id,distance_km,elevation_m,drainage_area_m2,x_coord,y_coord,chi,slope
1,0.0,23,209829747.5,250215.8134,6237945.645,0.0069594602575352915,0.025857364931274614
2,0.038673701,22,209826007.2,250243.164,6237918.295,0.01290015039294382,0.015145946262455289
3,0.066024267,22,209823763.1,250243.164,6237890.944,0.017822038268668718,-0.0
4,0.093374833,22,209817778.6,250243.164,6237863.594,0.022743989316652995,-0.0
5,0.120725399,22,209816282.5,250243.164,6237836.243,0.027665956247825686,-0.018281156991757377
6,0.148075966,23,209812542.3,250243.164,6237808.892,0.03360681794220648,-0.06058378504982113
7,0.186749666,26,209778131.8,250215.8134,6237781.542,0.039548118140159905,-0.045437838787365854
8,0.214100233,26,209777383.8,250215.8134,6237754.191,0.04447049575315774,0.05484347097527215
9,0.241450799,23,209755690.2,250215.8134,6237726.841,0.05041208189751746,0.06058378596741991
10,0.280124499,22,209692853.7,250188.4629,6237699.49,0.05737358620333876,0.025857365265576294
11,0.3187982,21,209692105.7,250161.1123,6237672.14,0.06433510177383313,0.025857364931274617
12,0.357471901,20,209691357.6,250133.7618,6237644.789,0.07129662843054588,-0.025857365265576263
13,0.396145601,23,209690609.5,250106.4112,6237617.439,0.07825816626353804,-0.0646434131639407
14,0.434819302,25,209689861.5,250079.0606,6237590.088,0.08521971536137712,-0.0258573649312746
15,0.473493003,25,209689113.4,250051.7101,6237562.737,0.09218127563561139,-0.0
16,0.512166704,25,209687617.3,250024.3595,6237535.387,0.09914285817131138,-0.012928682632788142
17,0.550840404,26,209684625.1,249997.0089,6237508.036,0.10508535039083088,-0.0
18,0.57819097,25,209681632.9,249997.0089,6237480.686,0.11000873938621714,-0.018281156991757364
19,0.605541537,27,126421.0371,250024.3595,6237480.686,0.1792105777012471,-0.0
20,0.605541537,25,209535762.5,249997.0089,6237453.335,0.1816730431862107,-0.0
21,0.632892103,27,125672.9836,250051.7101,6237480.686,0.2510599385472398,0.03656231465191622
22,0.632892103,24,209529778.1,249997.0089,6237425.985,0.25352243568077515,-0.0
23,0.660242669,27,124924.9301,250079.0606,6237480.686,0.35189944997736733,-0.05171472986254931
24,0.671565804,26,209514817.0,249969.6584,6237398.634,0.3553815328716094,-0.0
25,0.69891637,27,122680.7697,249942.3078,6237398.634,0.4545643196996946,-0.02585736559987792
26,0.710239504,27,209390640.1,249942.3078,6237371.283,0.4570275530359176,-0.0
27,0.726266936,27,121932.7163,249914.9572,6237398.634,0.5564836994147824,0.05171472986254916
28,0.748913205,25,209387647.9,249914.9572,6237343.933,0.559966733810882,0.07757209479382374
29,0.764940637,24,116696.3419,249887.6067,6237371.283,0.6317066001918001,-0.07312462930383244
30,0.776263771,27,209386151.8,249914.9572,6237316.582,0.6351896456969108,-0.07757209679963398
31,0.803614337,27,113704.128,249860.2561,6237343.933,0.7378225066254249,-0.0
32,0.814937472,27,209378671.3,249887.6067,6237289.232,0.7402858034137896,0.03656231331511327
33,0.830964904,26,106223.5933,249832.9055,6237343.933,0.8151263374257388,0.03656231465191622
34,0.842288038,26,209362962.1,249887.6067,6237261.881,0.8186095565324443,-0.0
35,0.869638604,26,209124333.1,249887.6067,6237234.531,0.822094563763119,0.02585736493127458
36,0.880961739,25,236384.8978,249860.2561,6237234.531,0.8743110280559347,-0.0
37,0.896989171,26,209113860.3,249887.6067,6237207.18,0.8777961137363695,0.05171473119975584
38,0.919635439,23,235636.8443,249832.9055,6237207.18,0.9300871060529114,0.03656231465191607
39,0.924339737,25,209061496.6,249887.6067,6237179.829,0.9335725846061553,0.05171472986254931
40,0.95830914,21,234888.7908,249805.555,6237179.829,1.0076179205878326,-0.02585736493127458
41,0.963013438,26,209053268.0,249914.9572,6237152.479,1.0111034608771805,-0.1292868246563729
42,0.996982841,26,234140.7373,249778.2044,6237152.479,1.0852551565244608,0.02585736559987792
43,1.001687138,25,209046535.5,249942.3078,6237125.128,1.0877202136266304,-0.14624925860766427
44,1.024333407,30,230400.47,249750.8538,6237152.479,1.1405426964059335,0.03656231465191622
45,1.029037704,24,209041299.1,249969.6584,6237125.128,1.1430077812948194,-0.18281157325958033
46,1.051683973,35,225164.0957,249723.5033,6237152.479,1.1963795660001717,-0.0
47,1.056388271,24,209027086.1,249997.0089,6237125.128,1.1988447264049091,-0.18281156657556707
48,1.07903454,40,222171.8818,249696.1527,6237152.479,1.252538784754964,0.03656231465191607
49,1.083738837,23,205497769.8,250024.3595,6237125.128,1.2539944808579497,0.9358954657174952
50,1.095061971,25,3526324.076,250024.3595,6237097.778,1.2668080957115546,-0.9714624514969838
51,1.106385106,45,210203.0262,249668.8021,6237152.479,1.2990667624187486,0.06239302715494339
52,1.111089403,24,205474580.2,250051.7101,6237125.128,1.3005225325398755,1.0606814616340225
53,1.122412538,28,3525576.023,250024.3595,6237070.427,1.3133373707727758,-1.1480919881327876
54,1.133735672,50,177288.6733,249641.4516,6237152.479,1.3481652856771065,0.24957212419133207
55,1.138439969,24,205464107.4,250079.0606,6237125.128,1.3496210891889753,1.0606814616340225
56,1.149763104,33,3520339.648,250024.3595,6237043.077,1.3624445016348516,-1.324721524768601
57,1.161086238,54,170556.1921,249614.101,6237152.479,1.3978844904577343,0.37435816292966034
58,1.165790536,27,205463359.4,250106.4112,6237125.128,1.3993402963545685,1.0606814616340376
59,1.17711367,37,3518843.541,250024.3595,6237015.726,1.4148304719811609,-0.18281157325958033
60,1.193141102,32,205461115.2,250133.7618,6237125.128,1.4168874910968456,-0.9714624514969741
61,1.199759939,59,150358.7483,249586.7504,6237125.128,1.4433864453527814,-0.7948329499589084
62,1.204464236,41,3508370.793,250024.3595,6236988.375,1.4615652981878706,0.6551267851269009
63,1.231814803,38,205445406.1,250161.1123,6237097.778,1.4640497063239144,-0.0
64,1.231814803,41,3507622.739,250024.3595,6236961.025,1.4795621610833676,-0.2193738879114964
65,1.259165369,44,205442413.9,250188.4629,6237097.778,1.4820465854115679,-0.1096869439557482
66,1.259165369,44,2139432.935,249997.0089,6236961.025,1.4900689472516233,-0.35325908887062596
67,1.270488503,48,1353976.788,250051.7101,6236933.674,1.513876309159611,-0.3656231465191637
68,1.286515935,54,205436429.4,250215.8134,6237097.778,1.516360766055371,-0.10968694395574911
69,1.297839069,51,2136440.722,249969.6584,6236933.674,1.5324155987702541,-0.044157384158953365
70,1.309162204,55,1324802.702,250079.0606,6236906.324,1.5465041360322507,-0.4367511900845975
71,1.313866501,58,205431941.1,250243.164,6237097.778,1.5479600421163302,-0.24957210861977355
72,1.325189636,59,2134944.615,249942.3078,6236933.674,1.564019936697502,-0.08831476831790762
73,1.33651277,60,1321062.435,250079.0606,6236878.973,1.5781264097244372,-0.3119651357747125
74,1.341217068,64,205412491.7,250270.5146,6237097.778,1.580610996902562,-0.1828115732595788
75,1.363863336,65,2131952.401,249914.9572,6236906.324,1.6000192499351877,-0.2193738879114964
76,1.368567634,70,205410995.6,250297.8651,6237097.778,1.6010478724596857,-0.26494429325447727
77,1.375186471,68,1314329.954,250106.4112,6236851.623,1.6251757622209522,-0.07312462930383214
78,1.3959182,72,205410247.6,250325.2157,6237097.778,1.627660361613854,-0.07312462930383214
79,1.402537037,70,2124471.866,249887.6067,6236878.973,1.6404123295436226,-0.0
80,1.413860171,72,1309841.633,250133.7618,6236824.272,1.6587294445388896,-0.2894114620155403
81,1.423268766,76,205400522.9,250352.5663,6237097.778,1.6612140969570248,-0.10968693994534025
82,1.441210738,75,1294880.563,250133.7618,6236796.922,1.6771485370798191,-0.3344114013777332
83,1.441210738,82,2115495.224,249860.2561,6236851.623,1.691911383624388,-0.2894114620155403
84,1.461942467,81,205396782.6,250379.9168,6237070.427,1.6943960563121938,0.2193738879114964
85,1.468561304,76,1294132.51,250133.7618,6236769.571,1.7002758387137582,-2.1151752188488753
86,1.468561304,95,2113251.064,249860.2561,6236824.272,1.7150457380094994,-0.38588194935405373
87,1.489293033,84,205378829.3,250379.9168,6237043.077,1.7175305084345012,0.5849970344306571
88,1.49591187,79,1260470.104,250133.7618,6236742.22,1.7336592518007417,-0.7802932698813774
89,1.507235005,98,2110258.85,249832.9055,6236796.922,1.7531570353063575,-0.14624925860766547
90,1.523262436,83,1258973.997,250133.7618,6236714.87,1.7718035636408995,0.337646705684797
91,1.527966734,91,205375089.1,250407.2674,6237015.726,1.7728322670885837,-1.677980523944989
92,1.534585571,102,2104274.422,249832.9055,6236769.571,1.7889970768062298,0.3532590732716305
93,1.550613003,83,1258225.943,250133.7618,6236687.519,1.8076485929958181,0.048235243669257244
94,1.5553173,101,205369104.6,250434.618,6237015.726,1.8086773098420315,-1.6779806721354733
95,1.561936137,102,2103526.369,249832.9055,6236742.22,1.8329284039238414,0.2355060523141954
96,1.589286703,93,1178184.221,250161.1123,6236660.169,1.8626326136136473,-0.374358162929655
97,1.593991001,114,205349655.2,250461.9685,6236988.375,1.863661374394626,-1.1480919374360452
98,1.600609838,106,2087817.246,249805.555,6236714.87,1.8879944106051316,0.3826973350105701
99,1.627960404,101,1173695.901,250188.4629,6236632.818,1.9177496819387272,-0.34316166005763477
100,1.632664701,117,205348159.1,250489.3191,6236961.025,1.9187784460016917,-0.44157386108828245
101,1.639283538,106,2085573.085,249778.2044,6236687.519,1.9350083230571953,0.30910168911267355
102,1.65531097,110,1171451.74,250215.8134,6236632.818,1.9542693557191146,-0.4823524134261836
103,1.660015268,116,205337686.4,250489.3191,6236933.674,1.9552981434838181,0.5298885865089439
104,1.666634105,104,116696.3419,249778.2044,6236660.169,2.0023594950532995,0.6688228400324592
105,1.677957239,104,1962892.316,249750.8538,6236660.169,2.014163531277446,-0.8735023801692074
106,1.682661537,118,1168459.526,250243.164,6236632.818,2.0229147517565607,-0.6377147703775041
107,1.687365834,110,205326465.6,250489.3191,6236906.324,2.0239435647298305,1.2364068110471909
108,1.693984671,104,112956.0746,249778.2044,6236632.818,2.0967428316939882,0.2193738879114964
109,1.7147164,104,205319733.1,250489.3191,6236878.973,2.0988004880927122,-0.08831476831790673
110,1.71663094,106,1952419.567,249723.5033,6236632.818,2.103686941613261,-2.8705949398663306
111,1.721335237,123,1166215.366,250270.5146,6236605.468,2.127366239600926,0.0786286348347023
112,1.742066966,104,205299535.7,250489.3191,6236851.623,2.130452860882722,0.4710120907626177
113,1.755304641,107,1945687.086,249696.1527,6236605.468,2.1437193904887777,-1.2261751383850217
114,1.760008938,126,1164719.259,250297.8651,6236578.117,2.1674123711006055,-0.0786286348347023
115,1.780740667,109,205234455.0,250516.6697,6236824.272,2.1694704122000457,0.838990299020114
116,1.782655207,107,1944190.979,249668.8021,6236605.468,2.1743661615471135,-2.568427051459348
117,1.787359504,126,1160978.992,250297.8651,6236550.766,2.2086559362919145,-0.19042872061198593
118,1.819414368,114,205233707.0,250544.0202,6236796.922,2.2117430029586633,0.5298886177069397
119,1.821328907,108,1939702.658,249641.4516,6236578.117,2.216643846838093,-1.9640912746453165
120,1.826033205,127,1155742.617,250325.2157,6236523.416,2.2422090254257876,-0.0
121,1.848679474,108,1921001.321,249641.4516,6236550.766,2.2625489282601734,-0.03656231465191637
122,1.853383771,128,1137789.334,250325.2157,6236496.065,2.271405525522518,-0.7440006445171302
123,1.858088068,115,205231462.8,250571.3708,6236769.571,2.2734635801243743,0.838990299020114
124,1.87603004,109,1901551.931,249614.101,6236550.766,2.2903823187195442,-0.6182033782253471
125,1.880734337,129,1131804.906,250325.2157,6236468.715,2.2992599595668595,-0.7440005654404395
126,1.885438635,116,205183587.4,250598.7214,6236769.571,2.301318230247108,0.9714624514969838
127,1.903380606,107,1898559.717,249586.7504,6236550.766,2.3217659745001087,-0.03656231465191607
128,1.912789201,117,205178351.0,250626.0719,6236769.571,2.323222690051085,-1.4350396245636776
129,1.919408038,130,1062983.986,250297.8651,6236441.364,2.349768702741016,-0.0
130,1.940139767,117,204843223.0,250653.4225,6236769.571,2.351828511714784,0.9273050673380206
131,1.942054307,109,1895567.503,249559.3999,6236523.416,2.3567803793312825,-1.964091274645384
132,1.946758604,130,1059243.719,250297.8651,6236414.014,2.365926704238904,-0.6377147703775196
133,1.951462902,115,332883.7959,250653.4225,6236742.22,2.4183871828150836,0.4367511900846006
134,1.978813468,116,204822277.5,250680.7731,6236742.22,2.4210491356426216,0.23919271774353834
135,1.980728007,108,1883598.647,249532.0493,6236496.065,2.4260151380288977,-2.568427051459348
136,1.985432305,133,1053259.291,250270.5146,6236386.663,2.435184811994211,-0.6377147703775041
137,1.990136602,114,332135.7424,250680.7731,6236714.87,2.4691483950819615,0.7717638987081075
138,2.006164034,117,204819285.3,250708.1236,6236742.22,2.4707804068952233,0.1672057006888666
139,2.008078574,111,768250.9177,249532.0493,6236468.715,2.4729309990601975,3.65623073949924
140,2.008078574,110,1112355.516,249504.6987,6236496.065,2.4774045780614586,-4.889147092540905
141,2.012782871,134,1042786.543,250243.164,6236386.663,2.497700911516554,-0.28941146201553714
142,2.028810303,116,331387.689,250708.1236,6236687.519,2.5502678369260905,0.5615372443944825
143,2.044837735,116,204815545.1,250735.4742,6236714.87,2.551899862059526,0.3344114200162296
145,2.046752274,110,1107119.141,249477.3482,6236523.416,2.553724374211017,0.5223189498882312
144,2.046752274,115,763014.5434,249504.6987,6236441.364,2.559024974575436,-5.526860755845115
146,2.051456572,136,1039794.329,250215.8134,6236359.312,2.5682478943027602,-0.31885738518875206
147,2.056160869,118,330639.6355,250708.1236,6236660.169,2.602280548151437,0.9164696297158775
148,2.072188301,117,204808812.6,250762.8248,6236714.87,2.603912597517274,0.055735233562954824
149,2.074102841,117,760022.3295,249504.6987,6236414.014,2.6060736364460078,2.089274708284784
150,2.074102841,113,1094402.232,249449.9976,6236523.416,2.6150865477258187,-0.31885741907877013
151,2.083511435,120,323159.1007,250708.1236,6236632.818,2.6416690919035117,-1.4350397141001594
152,2.090130272,136,1030817.687,250188.4629,6236331.962,2.6574416490483754,0.24957210861977355
153,2.099538867,116,204787119.0,250790.1753,6236714.87,2.658471680541042,1.5896657595268957
154,2.101453407,118,753289.8483,249504.6987,6236386.663,2.671303957899453,-0.5298885865089439
155,2.110862002,122,316426.6195,250708.1236,6236605.468,2.69026288671783,0.26494431665296414
156,2.112776541,115,1089913.912,249422.647,6236550.766,2.696615101909215,-2.4173431072558573
157,2.117480839,138,1024833.259,250188.4629,6236304.611,2.7105400026510647,-0.07085719419824135
158,2.126889434,116,204772158.0,250817.5259,6236714.87,2.7124259676100624,0.7717638987081243
159,2.138212568,122,315678.566,250708.1236,6236578.117,2.7346141329366644,-0.22662591630523662
160,2.140127108,119,751045.6878,249477.3482,6236359.312,2.73678675701382,3.1339120624271755
161,2.140127108,116,1074952.842,249395.2965,6236550.766,2.7413297231695033,-4.038860641664226
162,2.144831405,138,1024085.206,250188.4629,6236277.261,2.7552591992158804,-0.07085719921898309
163,2.15424,117,204764677.4,250844.8765,6236714.87,2.7573193637067313,0.8389902990201223
164,2.167477674,119,745809.3135,249477.3482,6236331.962,2.772388875228725,0.07554197210174554
165,2.167477674,116,1074204.789,249367.9459,6236550.766,2.7769332647424276,-3.826289028945426
166,2.172181971,137,1019596.885,250188.4629,6236249.91,2.7862379557114827,-0.8502863605033594
167,2.176886269,124,312686.3521,250735.4742,6236550.766,2.802075788813453,2.1257159012582956
168,2.181590566,117,204747472.2,250872.227,6236714.87,2.803708058096118,0.11147047333874179
169,2.19482824,122,661279.271,249477.3482,6236304.611,2.8196157978289214,0.07554197210174554
170,2.19482824,116,1033809.901,249340.5953,6236550.766,2.8242392506218463,-3.4011458035070454
171,2.199532537,138,1003139.709,250188.4629,6236222.56,2.833612326628703,-0.9565721555662793
172,2.204236835,125,288000.5875,250735.4742,6236523.416,2.869826496159505,1.0129400681949856
173,2.220264267,117,204726526.7,250899.5776,6236687.519,2.8714588405886627,0.5016171300243507
175,2.222178806,116,988926.6926,249313.2448,6236550.766,2.8733784389794694,-3.133913699329387
174,2.222178806,123,659035.1105,249477.3482,6236277.261,2.879040257967824,-4.6765744857148706
176,2.226883104,138,957508.4467,250188.4629,6236195.209,2.888611771166016,-0.42514318025165915
177,2.231587401,127,286504.4805,250735.4742,6236496.065,2.944736569211482,0.6863233201152695
178,2.258937967,116,204690620.1,250926.9282,6236660.169,2.947399292471696,0.13668154832584659
179,2.260852507,123,651554.5758,249449.9976,6236249.91,2.949715388645454,-1.044637354142392
180,2.260852507,118,973217.5696,249285.8942,6236523.416,2.9544662271054274,-3.613717416226236
181,2.265556804,140,948531.805,250161.1123,6236167.858,2.9640783967000197,-1.5942869259437988
182,2.270261102,133,282764.2132,250708.1236,6236468.715,3.0005928286423376,1.1576457922228154
183,2.286288534,116,240873.2186,250954.2787,6236660.169,3.034558118298009,0.7245580767018216
184,2.288203073,120,969477.3022,249258.5436,6236523.416,3.0460131081994004,-0.0
185,2.297611668,116,204448998.9,250954.2787,6236632.818,3.0468696164168287,-1.488001130880879
186,2.297611668,134,281268.1062,250708.1236,6236441.364,3.0502497217061957,-6.267824124854351
187,2.299526208,128,632853.239,249422.647,6236222.56,3.058362420223149,-1.2086715536279287
188,2.304230505,142,947035.698,250133.7618,6236140.508,3.074748273539106,0.3743581862869981
189,2.315553639,122,964988.9814,249231.1931,6236523.416,3.09576526114183,1.2058810917314178
190,2.324962234,117,204966.6519,250981.6293,6236632.818,3.1379687257869073,0.2411762067130918
191,2.336285369,117,204448250.8,250981.6293,6236605.468,3.1389995251936065,-1.677980523944989
192,2.336285369,136,271543.411,250680.7731,6236414.014,3.142433574691936,-7.8347842483234675
193,2.338199908,132,630609.0785,249395.2965,6236195.209,3.1505592523841592,-0.9065036652209465
194,2.342904206,142,871482.2971,250106.4112,6236113.157,3.167569772428767,0.4991442172395471
195,2.35422734,124,957508.4467,249203.8425,6236496.065,3.1886604897723063,1.2058810917314178
196,2.363635935,117,203470.5449,251008.9799,6236605.468,3.207876759324553,-1.3817153358178922
197,2.363635935,137,270795.3576,250680.7731,6236386.663,3.211315076226131,-8.35709883314112
198,2.365550475,133,617892.1695,249395.2965,6236167.858,3.2253440511854286,1.7662954443531653
199,2.374959069,117,204447502.8,251008.9799,6236578.117,3.2268031076716204,-0.6863233415261631
200,2.381577906,144,862505.6555,250079.0606,6236085.807,3.23386073646369,-1.2086715536279287
201,2.381577906,125,935066.8424,249176.4919,6236496.065,3.2435349480800566,0.4251431802516797
202,2.390986501,140,267055.0902,250680.7731,6236359.312,3.263997806641954,-0.7065181153452585
203,2.392901041,133,617144.116,249395.2965,6236140.508,3.278034432460193,1.942924817199461
205,2.402309636,118,204443762.5,251036.3304,6236578.117,3.2788909505495027,1.381715335817959
204,2.402309636,120,201226.3845,251036.3304,6236632.818,3.3117894208168908,-1.3726466830523263
206,2.418337067,140,266307.0367,250680.7731,6236331.962,3.3442546120799177,-1.2819104433955306
207,2.420251607,143,858765.3881,250051.7101,6236058.456,3.3463000716944578,3.6562307394983713
208,2.420251607,133,610411.6347,249395.2965,6236113.157,3.3463000716944578,inf
209,2.420251607,122,920853.8264,249149.1414,6236468.715,3.367764519182694,0.43411719302331997
210,2.440983336,124,198234.1706,251063.681,6236660.169,3.4106070575582055,0.14470573100777331
211,2.440983336,119,204441518.3,251063.681,6236550.766,3.4110353187638647,-3.401145080519906
212,2.445687634,140,255834.2881,250680.7731,6236304.611,3.4232299943899775,-2.266259163052366
213,2.447602173,134,587970.0305,249395.2965,6236085.807,3.4256556234460938,9.401741097988161
214,2.447602173,122,918609.666,249149.1414,6236441.364,3.4373918297370825,-0.7948328797634159
215,2.458925308,143,845300.4256,250024.3595,6236031.106,3.464761167688843,-0.7469720015629743
216,2.4730382,141,243117.379,250680.7731,6236277.261,3.4949757604444347,1.3102535702537739
